#K-Path      Energy-Level
# NKPTS & NBANDS: 120 126
# Band-Index    1
   0.00000    -19.043788
   0.00749    -19.043646
   0.01498    -19.043226
   0.02247    -19.042524
   0.02996    -19.041548
   0.03744    -19.040288
   0.04493    -19.038750
   0.05242    -19.036933
   0.05991    -19.034836
   0.06740    -19.032460
   0.07489    -19.029809
   0.08238    -19.026882
   0.08987    -19.023677
   0.09735    -19.020196
   0.10484    -19.016438
   0.11233    -19.012406
   0.11982    -19.008099
   0.12731    -19.003522
   0.13480    -18.998675
   0.14229    -18.993558
   0.14978    -18.988170
   0.15726    -18.982516
   0.16475    -18.976597
   0.17224    -18.970412
   0.17973    -18.963965
   0.18722    -18.957260
   0.19471    -18.950299
   0.20220    -18.943086
   0.20969    -18.935629
   0.21718    -18.927933
   0.22466    -18.920003
   0.23215    -18.911851
   0.23964    -18.903492
   0.24713    -18.894950
   0.25462    -18.886260
   0.26211    -18.877495
   0.26960    -18.868798
   0.27709    -18.860504
   0.28457    -18.853562
   0.29206    -18.850484
   0.29206    -18.850484
   0.29639    -18.850443
   0.30071    -18.850318
   0.30503    -18.850113
   0.30936    -18.849820
   0.31368    -18.849450
   0.31800    -18.848996
   0.32233    -18.848460
   0.32665    -18.847845
   0.33098    -18.847142
   0.33530    -18.846359
   0.33962    -18.845494
   0.34395    -18.844548
   0.34827    -18.843520
   0.35259    -18.842410
   0.35692    -18.841219
   0.36124    -18.839947
   0.36557    -18.838594
   0.36989    -18.837162
   0.37421    -18.835649
   0.37854    -18.834053
   0.38286    -18.832382
   0.38718    -18.830631
   0.39151    -18.828799
   0.39583    -18.826887
   0.40015    -18.824899
   0.40448    -18.822831
   0.40880    -18.820687
   0.41313    -18.818464
   0.41745    -18.816164
   0.42177    -18.813789
   0.42610    -18.811338
   0.43042    -18.808812
   0.43474    -18.806213
   0.43907    -18.803538
   0.44339    -18.800798
   0.44771    -18.797980
   0.45204    -18.795096
   0.45636    -18.792161
   0.46069    -18.789733
   0.46069    -18.789733
   0.46933    -18.796343
   0.47798    -18.805390
   0.48663    -18.815493
   0.49527    -18.826150
   0.50392    -18.837052
   0.51257    -18.848005
   0.52122    -18.858893
   0.52986    -18.869635
   0.53851    -18.880181
   0.54716    -18.890491
   0.55581    -18.900543
   0.56445    -18.910312
   0.57310    -18.919779
   0.58175    -18.928942
   0.59040    -18.937784
   0.59904    -18.946299
   0.60769    -18.954479
   0.61634    -18.962321
   0.62498    -18.969812
   0.63363    -18.976959
   0.64228    -18.983753
   0.65093    -18.990194
   0.65957    -18.996278
   0.66822    -19.002002
   0.67687    -19.007365
   0.68552    -19.012364
   0.69416    -19.016997
   0.70281    -19.021264
   0.71146    -19.025163
   0.72011    -19.028693
   0.72875    -19.031855
   0.73740    -19.034651
   0.74605    -19.037072
   0.75469    -19.039121
   0.76334    -19.040799
   0.77199    -19.042108
   0.78064    -19.043039
   0.78928    -19.043599
   0.79793    -19.043788
 
 
# Band-Index    2
   0.79793    -18.521901
   0.78928    -18.522231
   0.78064    -18.523223
   0.77199    -18.524873
   0.76334    -18.527180
   0.75469    -18.530136
   0.74605    -18.533731
   0.73740    -18.537949
   0.72875    -18.542769
   0.72011    -18.548167
   0.71146    -18.554114
   0.70281    -18.560569
   0.69416    -18.567499
   0.68552    -18.574857
   0.67687    -18.582598
   0.66822    -18.590675
   0.65957    -18.599040
   0.65093    -18.607644
   0.64228    -18.616443
   0.63363    -18.625398
   0.62498    -18.634451
   0.61634    -18.643579
   0.60769    -18.652736
   0.59904    -18.661888
   0.59040    -18.671006
   0.58175    -18.680067
   0.57310    -18.689037
   0.56445    -18.697890
   0.55581    -18.706611
   0.54716    -18.715184
   0.53851    -18.723583
   0.52986    -18.731793
   0.52122    -18.739805
   0.51257    -18.747597
   0.50392    -18.755166
   0.49527    -18.762491
   0.48663    -18.769569
   0.47798    -18.776384
   0.46933    -18.782926
   0.46069    -18.788497
   0.46069    -18.788497
   0.45636    -18.786372
   0.45204    -18.784369
   0.44771    -18.783061
   0.44339    -18.782432
   0.43907    -18.782405
   0.43474    -18.782885
   0.43042    -18.783765
   0.42610    -18.784954
   0.42177    -18.786369
   0.41745    -18.787943
   0.41313    -18.789624
   0.40880    -18.791374
   0.40448    -18.793158
   0.40015    -18.794957
   0.39583    -18.796751
   0.39151    -18.798520
   0.38718    -18.800257
   0.38286    -18.801950
   0.37854    -18.803591
   0.37421    -18.805176
   0.36989    -18.806695
   0.36557    -18.808148
   0.36124    -18.809533
   0.35692    -18.810843
   0.35259    -18.812075
   0.34827    -18.813230
   0.34395    -18.814303
   0.33962    -18.815297
   0.33530    -18.816207
   0.33098    -18.817033
   0.32665    -18.817775
   0.32233    -18.818431
   0.31800    -18.819002
   0.31368    -18.819485
   0.30936    -18.819879
   0.30503    -18.820188
   0.30071    -18.820408
   0.29639    -18.820540
   0.29206    -18.820584
   0.29206    -18.820584
   0.28457    -18.817299
   0.27709    -18.809743
   0.26960    -18.800431
   0.26211    -18.790314
   0.25462    -18.779735
   0.24713    -18.768849
   0.23964    -18.757737
   0.23215    -18.746456
   0.22466    -18.735044
   0.21718    -18.723538
   0.20969    -18.711980
   0.20220    -18.700406
   0.19471    -18.688864
   0.18722    -18.677390
   0.17973    -18.666033
   0.17224    -18.654853
   0.16475    -18.643898
   0.15726    -18.633231
   0.14978    -18.622909
   0.14229    -18.612982
   0.13480    -18.603505
   0.12731    -18.594521
   0.11982    -18.586050
   0.11233    -18.578119
   0.10484    -18.570738
   0.09735    -18.563905
   0.08987    -18.557616
   0.08238    -18.551864
   0.07489    -18.546636
   0.06740    -18.541925
   0.05991    -18.537721
   0.05242    -18.534016
   0.04493    -18.530804
   0.03744    -18.528087
   0.02996    -18.525862
   0.02247    -18.524129
   0.01498    -18.522892
   0.00749    -18.522148
   0.00000    -18.521901
 
 
# Band-Index    3
   0.00000    -18.187795
   0.00749    -18.199585
   0.01498    -18.215656
   0.02247    -18.232006
   0.02996    -18.248349
   0.03744    -18.264577
   0.04493    -18.280625
   0.05242    -18.296428
   0.05991    -18.311927
   0.06740    -18.327071
   0.07489    -18.341798
   0.08238    -18.356059
   0.08987    -18.369797
   0.09735    -18.382961
   0.10484    -18.395503
   0.11233    -18.407382
   0.11982    -18.418562
   0.12731    -18.429029
   0.13480    -18.438773
   0.14229    -18.447796
   0.14978    -18.456114
   0.15726    -18.463752
   0.16475    -18.470743
   0.17224    -18.477123
   0.17973    -18.482934
   0.18722    -18.488211
   0.19471    -18.492989
   0.20220    -18.497304
   0.20969    -18.501186
   0.21718    -18.504661
   0.22466    -18.507749
   0.23215    -18.510468
   0.23964    -18.512835
   0.24713    -18.514866
   0.25462    -18.516565
   0.26211    -18.517944
   0.26960    -18.519007
   0.27709    -18.519766
   0.28457    -18.520220
   0.29206    -18.520375
   0.29206    -18.520375
   0.29639    -18.520752
   0.30071    -18.521871
   0.30503    -18.523711
   0.30936    -18.526238
   0.31368    -18.529405
   0.31800    -18.533155
   0.32233    -18.537429
   0.32665    -18.542173
   0.33098    -18.547332
   0.33530    -18.552849
   0.33962    -18.558674
   0.34395    -18.564763
   0.34827    -18.571073
   0.35259    -18.577568
   0.35692    -18.584215
   0.36124    -18.590981
   0.36557    -18.597837
   0.36989    -18.604769
   0.37421    -18.611746
   0.37854    -18.618749
   0.38286    -18.625758
   0.38718    -18.632754
   0.39151    -18.639717
   0.39583    -18.646627
   0.40015    -18.653462
   0.40448    -18.660202
   0.40880    -18.666820
   0.41313    -18.673281
   0.41745    -18.679554
   0.42177    -18.685592
   0.42610    -18.691330
   0.43042    -18.696710
   0.43474    -18.701642
   0.43907    -18.706030
   0.44339    -18.709767
   0.44771    -18.712747
   0.45204    -18.714892
   0.45636    -18.716164
   0.46069    -18.716577
   0.46069    -18.716577
   0.46933    -18.715082
   0.47798    -18.711187
   0.48663    -18.705598
   0.49527    -18.698787
   0.50392    -18.691054
   0.51257    -18.682581
   0.52122    -18.673488
   0.52986    -18.663841
   0.53851    -18.653695
   0.54716    -18.643079
   0.55581    -18.632018
   0.56445    -18.620536
   0.57310    -18.608637
   0.58175    -18.596335
   0.59040    -18.583641
   0.59904    -18.570563
   0.60769    -18.557107
   0.61634    -18.543283
   0.62498    -18.529090
   0.63363    -18.514539
   0.64228    -18.499634
   0.65093    -18.484378
   0.65957    -18.468781
   0.66822    -18.452848
   0.67687    -18.436591
   0.68552    -18.420010
   0.69416    -18.403120
   0.70281    -18.385928
   0.71146    -18.368449
   0.72011    -18.350698
   0.72875    -18.332681
   0.73740    -18.314430
   0.74605    -18.295959
   0.75469    -18.277293
   0.76334    -18.258477
   0.77199    -18.239564
   0.78064    -18.220636
   0.78928    -18.201953
   0.79793    -18.187795
 
 
# Band-Index    4
   0.79793    -18.176847
   0.78928    -18.177163
   0.78064    -18.178105
   0.77199    -18.179573
   0.76334    -18.181434
   0.75469    -18.183544
   0.74605    -18.185738
   0.73740    -18.187862
   0.72875    -18.189773
   0.72011    -18.191361
   0.71146    -18.192524
   0.70281    -18.193194
   0.69416    -18.193318
   0.68552    -18.192855
   0.67687    -18.191783
   0.66822    -18.190093
   0.65957    -18.187782
   0.65093    -18.184854
   0.64228    -18.181317
   0.63363    -18.177184
   0.62498    -18.172472
   0.61634    -18.167191
   0.60769    -18.161357
   0.59904    -18.154985
   0.59040    -18.148097
   0.58175    -18.140705
   0.57310    -18.132819
   0.56445    -18.124458
   0.55581    -18.115634
   0.54716    -18.106357
   0.53851    -18.096644
   0.52986    -18.086502
   0.52122    -18.075940
   0.51257    -18.064967
   0.50392    -18.053606
   0.49527    -18.041847
   0.48663    -18.029711
   0.47798    -18.017204
   0.46933    -18.004344
   0.46069    -17.991352
   0.46069    -17.991352
   0.45636    -17.997963
   0.45204    -18.005090
   0.44771    -18.012482
   0.44339    -18.020122
   0.43907    -18.027988
   0.43474    -18.036059
   0.43042    -18.044315
   0.42610    -18.052735
   0.42177    -18.061297
   0.41745    -18.069981
   0.41313    -18.078769
   0.40880    -18.087640
   0.40448    -18.096569
   0.40015    -18.105548
   0.39583    -18.114552
   0.39151    -18.123560
   0.38718    -18.132557
   0.38286    -18.141522
   0.37854    -18.150428
   0.37421    -18.159263
   0.36989    -18.168000
   0.36557    -18.176614
   0.36124    -18.185087
   0.35692    -18.193382
   0.35259    -18.201470
   0.34827    -18.209324
   0.34395    -18.216900
   0.33962    -18.224167
   0.33530    -18.231076
   0.33098    -18.237580
   0.32665    -18.243626
   0.32233    -18.249160
   0.31800    -18.254124
   0.31368    -18.258457
   0.30936    -18.262100
   0.30503    -18.265001
   0.30071    -18.267112
   0.29639    -18.268395
   0.29206    -18.268825
   0.29206    -18.268825
   0.28457    -18.268718
   0.27709    -18.268407
   0.26960    -18.267892
   0.26211    -18.267175
   0.25462    -18.266249
   0.24713    -18.265125
   0.23964    -18.263795
   0.23215    -18.262274
   0.22466    -18.260557
   0.21718    -18.258647
   0.20969    -18.256556
   0.20220    -18.254282
   0.19471    -18.251834
   0.18722    -18.249215
   0.17973    -18.246433
   0.17224    -18.243492
   0.16475    -18.240407
   0.15726    -18.237180
   0.14978    -18.233831
   0.14229    -18.230374
   0.13480    -18.226815
   0.12731    -18.223175
   0.11982    -18.219470
   0.11233    -18.215727
   0.10484    -18.211960
   0.09735    -18.208201
   0.08987    -18.204478
   0.08238    -18.200820
   0.07489    -18.197266
   0.06740    -18.193854
   0.05991    -18.190627
   0.05242    -18.187627
   0.04493    -18.184903
   0.03744    -18.182499
   0.02996    -18.180459
   0.02247    -18.178822
   0.01498    -18.177627
   0.00749    -18.176897
   0.00000    -18.176847
 
 
# Band-Index    5
   0.00000    -18.176299
   0.00749    -18.164798
   0.01498    -18.149018
   0.02247    -18.133152
   0.02996    -18.117482
   0.03744    -18.102083
   0.04493    -18.087006
   0.05242    -18.072268
   0.05991    -18.057861
   0.06740    -18.043759
   0.07489    -18.029920
   0.08238    -18.016292
   0.08987    -18.002808
   0.09735    -17.989408
   0.10484    -17.976039
   0.11233    -17.962646
   0.11982    -17.949191
   0.12731    -17.935644
   0.13480    -17.921980
   0.14229    -17.908180
   0.14978    -17.894235
   0.15726    -17.880149
   0.16475    -17.865931
   0.17224    -17.851595
   0.17973    -17.837154
   0.18722    -17.822645
   0.19471    -17.808107
   0.20220    -17.793590
   0.20969    -17.779156
   0.21718    -17.764883
   0.22466    -17.750874
   0.23215    -17.737250
   0.23964    -17.724171
   0.24713    -17.711840
   0.25462    -17.705935
   0.26211    -17.702442
   0.26960    -17.699679
   0.27709    -17.697684
   0.28457    -17.696478
   0.29206    -17.696079
   0.29206    -17.696079
   0.29639    -17.698543
   0.30071    -17.704298
   0.30503    -17.711418
   0.30936    -17.719114
   0.31368    -17.727094
   0.31800    -17.735225
   0.32233    -17.743443
   0.32665    -17.751713
   0.33098    -17.760012
   0.33530    -17.768320
   0.33962    -17.776632
   0.34395    -17.784938
   0.34827    -17.793225
   0.35259    -17.801492
   0.35692    -17.809732
   0.36124    -17.817938
   0.36557    -17.826103
   0.36989    -17.834237
   0.37421    -17.842326
   0.37854    -17.850366
   0.38286    -17.858357
   0.38718    -17.866296
   0.39151    -17.874180
   0.39583    -17.882005
   0.40015    -17.889772
   0.40448    -17.897475
   0.40880    -17.905114
   0.41313    -17.912682
   0.41745    -17.920187
   0.42177    -17.927623
   0.42610    -17.934984
   0.43042    -17.942275
   0.43474    -17.949490
   0.43907    -17.956626
   0.44339    -17.963686
   0.44771    -17.970666
   0.45204    -17.977566
   0.45636    -17.984381
   0.46069    -17.990886
   0.46069    -17.990886
   0.46933    -17.978364
   0.47798    -17.966969
   0.48663    -17.957027
   0.49527    -17.948594
   0.50392    -17.941699
   0.51257    -17.936300
   0.52122    -17.932344
   0.52986    -17.929722
   0.53851    -17.928315
   0.54716    -17.927993
   0.55581    -17.928619
   0.56445    -17.930064
   0.57310    -17.932201
   0.58175    -17.934935
   0.59040    -17.938164
   0.59904    -17.941813
   0.60769    -17.945822
   0.61634    -17.950142
   0.62498    -17.954738
   0.63363    -17.959597
   0.64228    -17.964722
   0.65093    -17.970128
   0.65957    -17.975857
   0.66822    -17.981974
   0.67687    -17.988572
   0.68552    -17.995768
   0.69416    -18.003705
   0.70281    -18.012558
   0.71146    -18.022491
   0.72011    -18.033655
   0.72875    -18.046137
   0.73740    -18.059943
   0.74605    -18.074987
   0.75469    -18.091116
   0.76334    -18.108140
   0.77199    -18.125851
   0.78064    -18.144014
   0.78928    -18.162278
   0.79793    -18.176299
 
 
# Band-Index    6
   0.79793    -17.925081
   0.78928    -17.924496
   0.78064    -17.922793
   0.77199    -17.919896
   0.76334    -17.915709
   0.75469    -17.910105
   0.74605    -17.902942
   0.73740    -17.894076
   0.72875    -17.883401
   0.72011    -17.870887
   0.71146    -17.856582
   0.70281    -17.840629
   0.69416    -17.823225
   0.68552    -17.804608
   0.67687    -17.785022
   0.66822    -17.764688
   0.65957    -17.743830
   0.65093    -17.723837
   0.64228    -17.706752
   0.63363    -17.689742
   0.62498    -17.672875
   0.61634    -17.656248
   0.60769    -17.639933
   0.59904    -17.624023
   0.59040    -17.608594
   0.58175    -17.593729
   0.57310    -17.579513
   0.56445    -17.566028
   0.55581    -17.553349
   0.54716    -17.541594
   0.53851    -17.539422
   0.52986    -17.540954
   0.52122    -17.543997
   0.51257    -17.547902
   0.50392    -17.552092
   0.49527    -17.556062
   0.48663    -17.559458
   0.47798    -17.562018
   0.46933    -17.563596
   0.46069    -17.564127
   0.46069    -17.564127
   0.45636    -17.563998
   0.45204    -17.563614
   0.44771    -17.562983
   0.44339    -17.562118
   0.43907    -17.561028
   0.43474    -17.559735
   0.43042    -17.558242
   0.42610    -17.556571
   0.42177    -17.554736
   0.41745    -17.552755
   0.41313    -17.550642
   0.40880    -17.548420
   0.40448    -17.546093
   0.40015    -17.543683
   0.39583    -17.541206
   0.39151    -17.538680
   0.38718    -17.536124
   0.38286    -17.533620
   0.37854    -17.536821
   0.37421    -17.542445
   0.36989    -17.548316
   0.36557    -17.554413
   0.36124    -17.560727
   0.35692    -17.567237
   0.35259    -17.573935
   0.34827    -17.580807
   0.34395    -17.587840
   0.33962    -17.595021
   0.33530    -17.602334
   0.33098    -17.609765
   0.32665    -17.617293
   0.32233    -17.624900
   0.31800    -17.632555
   0.31368    -17.640216
   0.30936    -17.647814
   0.30503    -17.655224
   0.30071    -17.662141
   0.29639    -17.667769
   0.29206    -17.670198
   0.29206    -17.670198
   0.28457    -17.671566
   0.27709    -17.675589
   0.26960    -17.681990
   0.26211    -17.690412
   0.25462    -17.700474
   0.24713    -17.710120
   0.23964    -17.714977
   0.23215    -17.720439
   0.22466    -17.726460
   0.21718    -17.732987
   0.20969    -17.739973
   0.20220    -17.747359
   0.19471    -17.755097
   0.18722    -17.763131
   0.17973    -17.771411
   0.17224    -17.779886
   0.16475    -17.788508
   0.15726    -17.797236
   0.14978    -17.806024
   0.14229    -17.814824
   0.13480    -17.823596
   0.12731    -17.832295
   0.11982    -17.840881
   0.11233    -17.849310
   0.10484    -17.857540
   0.09735    -17.865527
   0.08987    -17.873223
   0.08238    -17.880580
   0.07489    -17.887553
   0.06740    -17.894091
   0.05991    -17.900140
   0.05242    -17.905650
   0.04493    -17.910567
   0.03744    -17.914839
   0.02996    -17.918414
   0.02247    -17.921248
   0.01498    -17.923307
   0.00749    -17.924567
   0.00000    -17.925081
 
 
# Band-Index    7
   0.00000    -17.924917
   0.00749    -17.924223
   0.01498    -17.921857
   0.02247    -17.917901
   0.02996    -17.912379
   0.03744    -17.905312
   0.04493    -17.896741
   0.05242    -17.886720
   0.05991    -17.875321
   0.06740    -17.862639
   0.07489    -17.848783
   0.08238    -17.833877
   0.08987    -17.818048
   0.09735    -17.801424
   0.10484    -17.784135
   0.11233    -17.766301
   0.11982    -17.748051
   0.12731    -17.729490
   0.13480    -17.710738
   0.14229    -17.691902
   0.14978    -17.673101
   0.15726    -17.654452
   0.16475    -17.636080
   0.17224    -17.618125
   0.17973    -17.600734
   0.18722    -17.584079
   0.19471    -17.568340
   0.20220    -17.553719
   0.20969    -17.540431
   0.21718    -17.528690
   0.22466    -17.518695
   0.23215    -17.510604
   0.23964    -17.504497
   0.24713    -17.500328
   0.25462    -17.497932
   0.26211    -17.496986
   0.26960    -17.497047
   0.27709    -17.497609
   0.28457    -17.498183
   0.29206    -17.498417
   0.29206    -17.498417
   0.29639    -17.498516
   0.30071    -17.498815
   0.30503    -17.499314
   0.30936    -17.500003
   0.31368    -17.500883
   0.31800    -17.501946
   0.32233    -17.503186
   0.32665    -17.504598
   0.33098    -17.506168
   0.33530    -17.507892
   0.33962    -17.509757
   0.34395    -17.511753
   0.34827    -17.513867
   0.35259    -17.516088
   0.35692    -17.518401
   0.36124    -17.520796
   0.36557    -17.523256
   0.36989    -17.525773
   0.37421    -17.528323
   0.37854    -17.530878
   0.38286    -17.531266
   0.38718    -17.526196
   0.39151    -17.521313
   0.39583    -17.516691
   0.40015    -17.512343
   0.40448    -17.508273
   0.40880    -17.504488
   0.41313    -17.500994
   0.41745    -17.497797
   0.42177    -17.494896
